#  tth(deg)  intensity
0.588331 268.644
0.601376 275.7
0.614421 290.129
0.627466 306.121
0.640511 323.57
0.653556 342.554
0.666601 350.431
0.679646 334.771
0.692691 338.785
0.705736 348.551
0.718781 361.333
0.731826 374.037
0.744871 386.653
0.757916 397.452
0.770961 408.695
0.784006 410.342
0.797051 403.722
0.810096 406.592
0.823141 413.847
0.836186 421.096
0.849231 428.106
0.862276 434.97
0.875321 440.63
0.888366 446.195
0.901411 451.171
0.914456 455.266
0.927501 459.596
0.940546 463.763
0.953591 467.371
0.966636 470.377
0.979681 472.901
0.992726 474.996
1.00577 477.831
1.01882 480.431
1.03186 482.688
1.04491 484.772
1.05795 486.75
1.071 488.227
1.08404 489.397
1.09709 491.358
1.11013 492.765
1.12318 494.202
1.13622 496.254
1.14927 498.876
1.16231 500.581
1.17536 502.659
1.1884 504.926
1.20145 507.332
1.21449 509.892
1.22754 512.296
1.24058 514.969
1.25363 517.659
1.26667 520.499
1.27972 523.257
1.29276 525.345
1.30581 527.248
1.31885 529.097
1.3319 530.965
1.34494 532.497
1.35799 534.137
1.37103 535.553
1.38408 536.544
1.39712 537.429
1.41017 538.501
1.42321 539.07
1.43626 539.253
1.4493 538.687
1.46235 537.861
1.47539 536.189
1.48844 534.164
1.50148 531.604
1.51453 528.794
1.52757 525.558
1.54062 521.436
1.55366 517.345
1.56671 513.341
1.57975 509.104
1.5928 504.609
1.60584 499.845
1.61889 494.512
1.63193 488.075
1.64498 482.219
1.65802 476.426
1.67107 470.528
1.68411 464.769
1.69716 459.52
1.7102 454.148
1.72325 448.276
1.73629 442.349
1.74934 436.87
1.76238 431.712
1.77543 426.508
1.78847 421.61
1.80152 417.004
1.81456 411.876
1.82761 406.973
1.84065 402.006
1.8537 397.422
1.86674 392.939
1.87979 388.536
1.89283 384.677
1.90588 380.622
1.91892 376.692
1.93197 372.939
1.94501 369.347
1.95806 365.933
1.9711 362.75
1.98415 359.265
1.99719 356.034
2.01024 353.1
2.02328 349.648
2.03633 346.432
2.04937 343.255
2.06242 340.401
2.07546 337.684
2.08851 335.071
2.10155 332.411
2.1146 329.964
2.12764 327.403
2.14069 324.544
2.15373 322.196
2.16678 319.588
2.17982 317.112
2.19287 314.861
2.20591 312.523
2.21896 310.363
2.232 308.183
2.24505 306.063
2.25809 304.216
2.27114 302.275
2.28418 300.272
2.29723 299.101
2.31027 297.318
2.32332 295.226
2.33636 292.977
2.34941 291.095
2.36245 289.449
2.3755 287.53
2.38854 285.737
2.40159 284.106
2.41463 282.072
2.42768 280.263
2.44072 278.614
2.45377 277.176
2.46681 275.597
2.47986 273.691
2.4929 271.925
2.50595 270.193
2.51899 268.391
2.53204 266.699
2.54508 264.569
2.55813 262.98
2.57117 261.719
2.58422 260.119
2.59726 258.623
2.61031 257.282
2.62335 255.767
2.6364 254.353
2.64944 252.774
2.66249 251.353
2.67553 250.133
2.68858 248.97
2.70162 248.028
2.71467 246.949
2.72771 245.988
2.74076 245.039
2.7538 244.336
2.76685 243.646
2.77989 242.705
2.79294 241.993
2.80598 241.343
2.81903 240.571
2.83207 239.892
2.84512 239.281
2.85816 238.721
2.87121 238.16
2.88425 237.683
2.8973 237.246
2.91034 236.65
2.92339 235.802
2.93643 235.007
2.94948 234.389
2.96252 233.861
2.97557 233.435
2.98861 232.752
3.00166 231.927
3.0147 231.337
3.02775 230.754
3.04079 230.015
3.05384 229.492
3.06688 229.087
3.07993 228.477
3.09297 227.734
3.10602 226.999
3.11906 226.251
3.13211 225.524
3.14515 225.439
3.1582 225.298
3.17124 224.645
3.18429 223.988
3.19733 223.444
3.21038 222.883
3.22342 222.369
3.23647 221.71
3.24951 221.248
3.26256 220.961
3.2756 220.532
3.28865 220.138
3.30169 219.79
3.31474 219.222
3.32778 218.722
3.34083 218.177
3.35387 217.756
3.36692 217.431
3.37996 217.085
3.39301 216.535
3.40605 216.382
3.4191 215.942
3.43214 215.34
3.44519 214.685
3.45823 214.198
3.47128 213.818
3.48432 213.512
3.49737 213.113
3.51041 212.787
3.52346 212.399
3.5365 211.805
3.54955 211.546
3.56259 211.131
3.57564 210.742
3.58868 210.564
3.60173 210.227
3.61477 209.985
3.62782 209.875
3.64086 209.605
3.65391 209.394
3.66695 209.335
3.68 209.163
3.69304 208.778
3.70609 208.351
3.71913 208.068
3.73218 207.954
3.74522 207.954
3.75827 207.711
3.77131 207.536
3.78436 207.392
3.7974 207.103
3.81045 206.827
3.82349 206.76
3.83654 206.683
3.84958 206.741
3.86263 206.672
3.87567 206.275
3.88872 205.992
3.90176 205.871
3.91481 205.804
3.92785 205.97
3.9409 205.923
3.95394 206.017
3.96699 206.002
3.98003 206.189
3.99308 206.126
4.00612 206.007
4.01917 205.766
4.03221 205.851
4.04526 206.027
4.0583 206.1
4.07135 205.962
4.08439 206.015
4.09744 206.291
4.11048 206.304
4.12353 206.17
4.13657 205.926
4.14962 205.879
4.16266 205.888
4.17571 205.831
4.18875 205.971
4.2018 206.029
4.21484 206.03
4.22789 205.999
4.24093 205.996
4.25398 205.801
4.26702 205.63
4.28007 205.3
4.29311 205.065
4.30616 204.73
4.3192 204.842
4.33225 204.718
4.34529 204.409
4.35834 204.29
4.37138 204.22
4.38443 204.265
4.39747 204.088
4.41052 203.767
4.42356 203.667
4.43661 203.691
4.44965 203.535
4.4627 203.371
4.47574 203.159
4.48879 202.806
4.50183 202.737
4.51488 202.651
4.52792 202.531
4.54097 202.384
4.55401 202.303
4.56706 201.925
4.5801 201.504
4.59315 201.188
4.60619 200.991
4.61924 200.982
4.63228 200.8
4.64533 200.529
4.65837 200.379
4.67142 200.341
4.68446 200.451
4.69751 200.543
4.71055 200.277
4.7236 199.783
4.73664 199.5
4.74969 199.206
4.76273 198.83
4.77578 198.794
4.78882 199.038
4.80187 198.985
4.81491 198.65
4.82796 198.363
4.841 198.138
4.85405 198.019
4.86709 197.89
4.88014 197.541
4.89318 197.306
4.90623 197.285
4.91927 197.333
4.93232 197.243
4.94536 197.013
4.95841 196.624
4.97145 196.312
4.9845 196.152
4.99754 195.812
5.01059 195.487
5.02363 195.217
5.03668 194.716
5.04972 194.074
5.06277 193.485
5.07581 192.671
5.08886 191.947
5.1019 191.598
5.11495 191.224
5.12799 190.981
5.14104 190.441
5.15408 189.642
5.16713 188.595
5.18017 187.94
5.19322 187.235
5.20626 186.342
5.21931 185.416
5.23235 184.358
5.2454 183.433
5.25844 182.56
5.27149 181.795
5.28453 181.055
5.29758 180.114
5.31062 179.042
5.32367 177.996
5.33671 177.044
5.34976 175.882
5.3628 175.063
5.37585 174.077
5.38889 173.229
5.40194 172.481
5.41498 171.641
5.42803 170.821
5.44107 169.998
5.45412 169.167
5.46716 168.249
5.48021 167.446
5.49325 166.723
5.5063 166.02
5.51934 165.646
5.53239 165.085
5.54543 164.559
5.55848 163.872
5.57152 163.203
5.58457 162.724
5.59761 162.225
5.61066 161.746
5.6237 161.2
5.63675 160.828
5.64979 160.5
5.66284 160.135
5.67588 159.789
5.68893 159.438
5.70197 159.025
5.71502 158.84
5.72806 158.614
5.74111 158.563
5.75415 158.398
5.7672 158.344
5.78024 158.178
5.79329 157.976
5.80633 157.638
5.81938 157.314
5.83242 156.933
5.84547 156.651
5.85851 156.516
5.87156 156.466
5.8846 156.265
5.89765 156.062
5.91069 156.231
5.92374 156.344
5.93678 156.308
5.94983 156.137
5.96287 155.809
5.97592 155.777
5.98896 155.648
6.00201 155.675
6.01505 155.707
6.0281 155.47
6.04114 155.408
6.05419 155.436
6.06723 155.433
6.08028 155.673
6.09332 155.484
6.10637 155.319
6.11941 155.255
6.13246 155.039
6.1455 155.016
6.15855 155.057
6.17159 155.003
6.18464 154.778
6.19768 154.548
6.21073 154.322
6.22377 154.156
6.23682 154.108
6.24986 154.311
6.26291 154.007
6.27595 153.766
6.289 153.76
6.30204 153.634
6.31509 153.547
6.32813 153.515
6.34118 153.347
6.35422 153.16
6.36727 152.903
6.38031 152.812
6.39336 153.006
6.4064 152.997
6.41945 152.781
6.43249 152.475
6.44554 152.447
6.45858 152.352
6.47163 152.135
6.48467 152
6.49772 151.699
6.51076 151.603
6.52381 151.558
6.53685 151.566
6.5499 151.392
6.56294 151.04
6.57599 151.079
6.58903 151.165
6.60208 150.922
6.61512 150.731
6.62817 150.447
6.64121 150.337
6.65426 150.207
6.6673 149.935
6.68035 149.657
6.69339 149.409
6.70644 149.361
6.71948 149.205
6.73253 149.142
6.74557 149.059
6.75862 148.878
6.77166 148.667
6.78471 148.244
6.79775 147.995
6.8108 147.916
6.82384 147.646
6.83689 147.453
6.84993 147.42
6.86298 147.227
6.87602 147.202
6.88907 146.933
6.90211 146.759
6.91516 146.551
6.9282 146.324
6.94125 146.257
6.95429 146.293
6.96734 146.448
6.98038 146.19
6.99343 146.14
7.00647 146.077
7.01952 146.071
7.03256 145.831
7.04561 145.639
7.05865 145.561
7.0717 145.27
7.08474 145.247
7.09779 145.24
7.11083 145.159
7.12388 144.816
7.13692 144.42
7.14997 144.088
7.16301 143.952
7.17606 144.127
7.1891 144.328
7.20215 144.481
7.21519 144.609
7.22824 144.741
7.24128 144.807
7.25433 144.594
7.26737 144.451
7.28042 144.475
7.29346 144.301
7.30651 144.283
7.31955 144.246
7.3326 144.194
7.34564 144.094
7.35869 143.993
7.37173 144.254
7.38478 144.561
7.39782 144.578
7.41087 144.646
7.42391 144.79
7.43696 144.888
7.45 144.781
7.46305 144.764
7.47609 144.729
7.48914 144.769
7.50218 144.902
7.51523 144.916
7.52827 144.984
7.54132 145.189
7.55436 145.321
7.56741 145.24
7.58045 145.346
7.5935 145.486
7.60654 145.496
7.61959 145.46
7.63263 145.411
7.64568 145.575
7.65872 145.533
7.67177 145.603
7.68481 145.589
7.69786 145.622
7.7109 145.623
7.72395 145.505
7.73699 145.623
7.75004 145.791
7.76308 145.987
7.77613 146.171
7.78917 146.252
7.80222 146.103
7.81526 145.832
7.82831 145.735
7.84135 145.838
7.8544 145.821
7.86744 145.867
7.88049 145.951
7.89353 146.084
7.90658 146.255
7.91962 146.376
7.93267 146.191
7.94571 146.011
7.95876 146.084
7.9718 146.229
7.98485 146.17
7.99789 146.088
8.01094 146.045
8.02398 145.948
8.03703 145.83
8.05007 145.808
8.06312 145.807
8.07616 145.479
8.08921 145.436
8.10225 145.445
8.1153 145.378
8.12834 145.23
8.14139 145.23
8.15443 145.108
8.16748 145.057
8.18052 145.073
8.19357 145.111
8.20661 145.075
8.21966 145.151
8.2327 145.244
8.24575 145.302
8.25879 145.183
8.27184 145.011
8.28488 144.819
8.29793 144.698
8.31097 144.684
8.32402 144.775
8.33706 144.861
8.35011 144.836
8.36315 144.799
8.3762 144.729
8.38924 144.582
8.40229 144.464
8.41533 144.255
8.42838 144.027
8.44142 144.126
8.45447 144.071
8.46752 143.931
8.48056 143.714
8.49361 143.459
8.50665 143.493
8.5197 143.571
8.53274 143.474
8.54579 143.294
8.55883 143.256
8.57188 143.149
8.58492 142.973
8.59797 142.987
8.61101 142.963
8.62406 142.895
8.6371 142.929
8.65015 142.761
8.66319 142.729
8.67624 142.689
8.68928 142.48
8.70233 142.484
8.71537 142.388
8.72842 142.247
8.74146 142.104
8.75451 142.162
8.76755 142.102
8.7806 141.903
8.79364 141.72
8.80669 141.639
8.81973 141.498
8.83278 141.417
8.84582 141.479
8.85887 141.413
8.87191 141.33
8.88496 141.347
8.898 141.463
8.91105 141.274
8.92409 141.14
8.93714 140.935
8.95018 140.914
8.96323 140.783
8.97627 140.789
8.98932 140.641
9.00236 140.365
9.01541 140.359
9.02845 140.178
9.0415 140.009
9.05454 139.874
9.06759 139.933
9.08063 139.882
9.09368 139.68
9.10672 139.483
9.11977 139.558
9.13281 139.501
9.14586 139.494
9.1589 139.306
9.17195 139.324
9.18499 139.33
9.19804 139.205
9.21108 139.048
9.22413 139.02
9.23717 138.832
9.25022 138.625
9.26326 138.456
9.27631 138.313
9.28935 138.15
9.3024 138.036
9.31544 137.926
9.32849 137.8
9.34153 137.603
9.35458 137.585
9.36762 137.622
9.38067 137.425
9.39371 137.421
9.40676 137.431
9.4198 137.185
9.43285 137.181
9.44589 137.278
9.45894 137.125
9.47198 137.104
9.48503 137
9.49807 136.794
9.51112 136.533
9.52416 136.481
9.53721 136.456
9.55025 136.437
9.5633 136.373
9.57634 136.337
9.58939 136.276
9.60243 136.172
9.61548 136.049
9.62852 135.947
9.64157 135.811
9.65461 135.614
9.66766 135.471
9.6807 135.309
9.69375 135.272
9.70679 135.285
9.71984 135.261
9.73288 135.174
9.74593 135.01
9.75897 134.913
9.77202 134.915
9.78506 134.72
9.79811 134.506
9.81115 134.463
9.8242 134.589
9.83724 134.625
9.85029 134.7
9.86333 134.565
9.87638 134.442
9.88942 134.392
9.90247 134.592
9.91551 134.746
9.92856 134.389
9.9416 134.056
9.95465 133.987
9.96769 134.033
9.98074 133.935
9.99378 133.812
10.0068 133.79
10.0199 133.829
10.0329 133.723
10.046 133.72
10.059 133.494
10.0721 133.527
10.0851 133.471
10.0981 133.388
10.1112 133.371
10.1242 133.19
10.1373 133.173
10.1503 133.276
10.1634 133.254
10.1764 133.191
10.1895 133.071
10.2025 132.909
10.2155 132.905
10.2286 132.786
10.2416 132.631
10.2547 132.666
10.2677 132.885
10.2808 132.778
10.2938 132.626
10.3069 132.577
10.3199 132.545
10.333 132.468
10.346 132.258
10.359 132.209
10.3721 132.183
10.3851 132.229
10.3982 132.186
10.4112 132.18
10.4243 132.274
10.4373 132.329
10.4504 132.362
10.4634 132.355
10.4764 132.084
10.4895 131.789
10.5025 131.522
10.5156 131.595
10.5286 131.584
10.5417 131.444
10.5547 131.408
10.5678 131.384
10.5808 131.393
10.5939 131.357
10.6069 131.306
10.6199 131.411
10.633 131.301
10.646 130.965
10.6591 130.842
10.6721 130.618
10.6852 130.536
10.6982 130.613
10.7113 130.68
10.7243 130.766
10.7373 130.646
10.7504 130.499
10.7634 130.597
10.7765 130.67
10.7895 130.592
10.8026 130.582
10.8156 130.582
10.8287 130.438
10.8417 130.185
10.8548 130.121
10.8678 130.198
10.8808 130.136
10.8939 130.056
10.9069 129.996
10.92 130.002
10.933 129.937
10.9461 129.752
10.9591 129.63
10.9722 129.539
10.9852 129.506
10.9982 129.258
11.0113 129.258
11.0243 129.309
11.0374 129.223
11.0504 129.096
11.0635 129.016
11.0765 129.25
11.0896 129.225
11.1026 129.268
11.1157 129.074
11.1287 128.951
11.1417 129.02
11.1548 128.999
11.1678 128.949
11.1809 128.754
11.1939 128.63
11.207 128.678
11.22 128.632
11.2331 128.639
11.2461 128.614
11.2591 128.437
11.2722 128.272
11.2852 128.145
11.2983 128.179
11.3113 128.163
11.3244 128.184
11.3374 128.125
11.3505 128.198
11.3635 128.094
11.3766 127.883
11.3896 127.672
11.4026 127.592
11.4157 127.582
11.4287 127.692
11.4418 127.581
11.4548 127.537
11.4679 127.597
11.4809 127.612
11.494 127.592
11.507 127.574
11.52 127.631
11.5331 127.486
11.5461 127.49
11.5592 127.516
11.5722 127.354
11.5853 127.294
11.5983 127.311
11.6114 127.279
11.6244 127.221
11.6375 127.235
11.6505 127.177
11.6635 127.282
11.6766 127.222
11.6896 127.04
11.7027 127.031
11.7157 127.067
11.7288 126.904
11.7418 126.891
11.7549 126.765
11.7679 126.65
11.7809 126.603
11.794 126.501
11.807 126.422
11.8201 126.549
11.8331 126.62
11.8462 126.727
11.8592 126.755
11.8723 126.859
11.8853 126.693
11.8984 126.574
11.9114 126.517
11.9244 126.414
11.9375 126.188
11.9505 126.126
11.9636 125.979
11.9766 125.995
11.9897 126.066
12.0027 126.245
12.0158 126.199
12.0288 126.453
12.0418 126.544
12.0549 126.237
12.0679 125.985
12.081 125.993
12.094 126.052
12.1071 126.125
12.1201 126.067
12.1332 125.889
12.1462 125.712
12.1593 125.728
12.1723 125.76
12.1853 125.705
12.1984 125.815
12.2114 125.915
12.2245 125.875
12.2375 125.869
12.2506 125.739
12.2636 125.71
12.2767 125.508
12.2897 125.307
12.3027 125.354
12.3158 125.238
12.3288 125.156
12.3419 125.029
12.3549 124.987
12.368 124.95
12.381 124.839
12.3941 124.758
12.4071 124.831
12.4202 124.937
12.4332 124.79
12.4462 124.634
12.4593 124.531
12.4723 124.305
12.4854 124.282
12.4984 124.125
12.5115 123.981
12.5245 123.77
12.5376 123.675
12.5506 123.796
12.5636 123.932
12.5767 123.94
12.5897 123.792
12.6028 123.651
12.6158 123.351
12.6289 123.48
12.6419 123.472
12.655 123.364
12.668 123.238
12.6811 123.291
12.6941 123.141
12.7071 122.993
12.7202 122.877
12.7332 122.864
12.7463 122.458
12.7593 122.161
12.7724 122.146
12.7854 122.194
12.7985 122.117
12.8115 121.989
12.8245 122.016
12.8376 122.042
12.8506 122.158
12.8637 122.121
12.8767 121.922
12.8898 121.653
12.9028 121.692
12.9159 121.558
12.9289 121.357
12.942 121.129
12.955 121.024
12.968 120.926
12.9811 120.901
12.9941 120.857
13.0072 120.738
13.0202 120.597
13.0333 120.562
13.0463 120.436
13.0594 120.29
13.0724 120.28
13.0854 120.359
13.0985 120.442
13.1115 120.438
13.1246 120.396
13.1376 120.338
13.1507 120.027
13.1637 119.833
13.1768 119.527
13.1898 119.279
13.2029 119.228
13.2159 119.155
13.2289 119.31
13.242 119.418
13.255 119.383
13.2681 119.207
13.2811 118.891
13.2942 118.778
13.3072 118.797
13.3203 118.787
13.3333 118.778
13.3463 118.57
13.3594 118.528
13.3724 118.601
13.3855 118.49
13.3985 118.374
13.4116 118.504
13.4246 118.658
13.4377 118.527
13.4507 118.308
13.4638 118.147
13.4768 117.989
13.4898 117.936
13.5029 117.757
13.5159 117.663
13.529 117.659
13.542 117.642
13.5551 117.684
13.5681 117.529
13.5812 117.411
13.5942 117.339
13.6072 117.172
13.6203 117.085
13.6333 117.077
13.6464 117.004
13.6594 116.882
13.6725 116.751
13.6855 116.672
13.6986 116.803
13.7116 116.688
13.7247 116.614
13.7377 116.561
13.7507 116.387
13.7638 116.246
13.7768 116.288
13.7899 116.214
13.8029 116.135
13.816 116.205
13.829 116.093
13.8421 116.087
13.8551 115.994
13.8681 115.952
13.8812 115.882
13.8942 115.82
13.9073 115.759
13.9203 115.753
13.9334 115.508
13.9464 115.461
13.9595 115.405
13.9725 115.117
13.9856 114.939
13.9986 114.891
14.0116 114.829
14.0247 114.815
14.0377 114.792
14.0508 114.772
14.0638 114.836
14.0769 114.67
14.0899 114.404
14.103 114.171
14.116 114.268
14.129 114.305
14.1421 114.362
14.1551 114.266
14.1682 114.29
14.1812 114.196
14.1943 114.162
14.2073 114.241
14.2204 114.155
14.2334 114.105
14.2465 114.273
14.2595 114.303
14.2725 114.157
14.2856 113.967
14.2986 113.706
14.3117 113.713
14.3247 113.743
14.3378 113.676
14.3508 113.652
14.3639 113.355
14.3769 113.288
14.3899 113.261
14.403 113.258
14.416 113.184
14.4291 113.282
14.4421 113.265
14.4552 113.21
14.4682 112.964
14.4813 112.729
14.4943 112.714
14.5074 112.736
14.5204 112.556
14.5334 112.376
14.5465 112.276
14.5595 112.211
14.5726 112.134
14.5856 112.178
14.5987 112.074
14.6117 112.064
14.6248 112.147
14.6378 111.925
14.6508 111.768
14.6639 111.713
14.6769 111.654
14.69 111.787
14.703 111.813
14.7161 111.454
14.7291 111.099
14.7422 111.137
14.7552 111.247
14.7683 111.17
14.7813 111.066
14.7943 111.048
14.8074 110.994
14.8204 111.025
14.8335 111.046
14.8465 111.029
14.8596 110.802
14.8726 110.595
14.8857 110.589
14.8987 110.652
14.9117 110.78
14.9248 110.77
14.9378 110.634
14.9509 110.422
14.9639 110.301
14.977 110.259
14.99 110.104
15.0031 110.126
15.0161 110.107
15.0292 110.053
15.0422 110.026
15.0552 109.915
15.0683 109.876
15.0813 109.846
15.0944 109.804
15.1074 109.797
15.1205 109.616
15.1335 109.41
15.1466 109.335
15.1596 109.283
15.1726 109.311
15.1857 109.353
15.1987 109.242
15.2118 109.186
15.2248 109.083
15.2379 109.077
15.2509 109.113
15.264 109.159
15.277 109.082
15.2901 108.862
15.3031 108.667
15.3161 108.524
15.3292 108.509
15.3422 108.458
15.3553 108.284
15.3683 108.265
15.3814 108.266
15.3944 108.27
15.4075 108.246
15.4205 108.046
15.4335 107.887
15.4466 107.764
15.4596 107.728
15.4727 107.654
15.4857 107.537
15.4988 107.338
15.5118 107.436
15.5249 107.308
15.5379 107.183
15.551 107.138
15.564 107.115
15.577 106.968
15.5901 106.975
15.6031 107.032
15.6162 106.949
15.6292 106.861
15.6423 106.774
15.6553 106.673
15.6684 106.642
15.6814 106.621
15.6944 106.599
15.7075 106.501
15.7205 106.52
15.7336 106.492
15.7466 106.492
15.7597 106.468
15.7727 106.532
15.7858 106.396
15.7988 106.141
15.8119 105.972
15.8249 105.955
15.8379 105.899
15.851 105.822
15.864 105.716
15.8771 105.637
15.8901 105.567
15.9032 105.624
15.9162 105.706
15.9293 105.555
15.9423 105.342
15.9553 105.26
15.9684 105.255
15.9814 105.136
15.9945 104.971
16.0075 104.998
16.0206 105.097
16.0336 105.159
16.0467 105.04
16.0597 104.91
16.0728 104.667
16.0858 104.66
16.0988 104.561
16.1119 104.516
16.1249 104.545
16.138 104.562
16.151 104.56
16.1641 104.546
16.1771 104.338
16.1902 104.154
16.2032 104.1
16.2162 104.051
16.2293 103.895
16.2423 103.767
16.2554 103.7
16.2684 103.7
16.2815 103.676
16.2945 103.637
16.3076 103.569
16.3206 103.404
16.3337 103.311
16.3467 103.196
16.3597 103.207
16.3728 103.217
16.3858 103.189
16.3989 103.099
16.4119 103.146
16.425 103.102
16.438 103.041
16.4511 102.798
16.4641 102.671
16.4771 102.635
16.4902 102.62
16.5032 102.507
16.5163 102.394
16.5293 102.258
16.5424 102.198
16.5554 102.113
16.5685 102.049
16.5815 101.93
16.5946 101.847
16.6076 101.833
16.6206 101.904
16.6337 101.847
16.6467 101.758
16.6598 101.703
16.6728 101.631
16.6859 101.485
16.6989 101.448
16.712 101.396
16.725 101.454
16.738 101.43
16.7511 101.294
16.7641 101.111
16.7772 100.881
16.7902 100.692
16.8033 100.618
16.8163 100.61
16.8294 100.762
16.8424 100.814
16.8555 100.763
16.8685 100.704
16.8815 100.556
16.8946 100.492
16.9076 100.326
16.9207 100.165
16.9337 100.09
16.9468 100.174
16.9598 100.03
16.9729 99.893
16.9859 99.7574
16.9989 99.5762
17.012 99.5097
17.025 99.5699
17.0381 99.6003
17.0511 99.4958
17.0642 99.535
17.0772 99.5826
17.0903 99.4354
17.1033 99.3934
17.1164 99.2421
17.1294 99.007
17.1424 98.9405
17.1555 99.0048
17.1685 98.9163
17.1816 98.7182
17.1946 98.7569
17.2077 98.683
17.2207 98.5916
17.2338 98.5599
17.2468 98.4894
17.2598 98.3745
17.2729 98.3447
17.2859 98.26
17.299 98.1747
17.312 98.1449
17.3251 98.1606
17.3381 98.1463
17.3512 98.015
17.3642 98.0035
17.3773 97.8686
17.3903 97.726
17.4033 97.6865
17.4164 97.5551
17.4294 97.4062
17.4425 97.3464
17.4555 97.3686
17.4686 97.2995
17.4816 97.1285
17.4947 97.0534
17.5077 97.0456
17.5207 97.1032
17.5338 96.9885
17.5468 96.9947
17.5599 96.8325
17.5729 96.7717
17.586 96.6487
17.599 96.5394
17.6121 96.541
17.6251 96.4315
17.6382 96.3087
17.6512 96.3136
17.6642 96.2598
17.6773 96.2786
17.6903 96.2945
17.7034 96.1183
17.7164 95.9722
17.7295 95.8788
17.7425 95.7629
17.7556 95.6686
17.7686 95.5894
17.7816 95.54
17.7947 95.6652
17.8077 95.5992
17.8208 95.4955
17.8338 95.3471
17.8469 95.2163
17.8599 95.3069
17.873 95.1879
17.886 95.0652
17.8991 94.9346
17.9121 94.8765
17.9251 94.9344
17.9382 94.8723
17.9512 94.8253
17.9643 94.8379
17.9773 94.7912
17.9904 94.6145
18.0034 94.5535
18.0165 94.4718
18.0295 94.3728
18.0426 94.3046
18.0556 94.3395
18.0686 94.1812
18.0817 94.1969
18.0947 94.2338
18.1078 94.1656
18.1208 93.9678
18.1339 93.6917
18.1469 93.4359
18.16 93.3397
18.173 93.359
18.186 93.397
18.1991 93.3741
18.2121 93.3343
18.2252 93.1247
18.2382 93.0002
18.2513 92.97
18.2643 93.1087
18.2774 93.0588
18.2904 93.0602
18.3035 92.9298
18.3165 92.826
18.3295 92.7133
18.3426 92.6567
18.3556 92.6868
18.3687 92.6228
18.3817 92.481
18.3948 92.3471
18.4078 92.3709
18.4209 92.3866
18.4339 92.3331
18.4469 92.2186
18.46 92.0502
18.473 91.913
18.4861 91.8966
18.4991 91.9577
18.5122 91.9109
18.5252 91.8573
18.5383 91.6813
18.5513 91.5892
18.5644 91.5155
18.5774 91.5729
18.5904 91.5004
18.6035 91.4127
18.6165 91.3644
18.6296 91.2803
18.6426 91.1869
18.6557 91.1781
18.6687 91.0095
18.6818 90.9638
18.6948 90.9706
18.7078 90.9466
18.7209 90.7503
18.7339 90.6145
18.747 90.5664
18.76 90.4748
18.7731 90.4867
18.7861 90.4065
18.7992 90.4198
18.8122 90.2903
18.8253 90.1562
18.8383 90.0525
18.8513 90.0279
18.8644 90.0483
18.8774 90.0481
18.8905 90.0125
18.9035 89.9546
18.9166 89.831
18.9296 89.7865
18.9427 89.73
18.9557 89.7467
18.9687 89.6663
18.9818 89.6646
18.9948 89.4482
19.0079 89.3181
19.0209 89.3788
19.034 89.2685
19.047 89.1745
19.0601 89.0406
19.0731 88.9159
19.0862 88.94
19.0992 89.0133
19.1122 88.9751
19.1253 88.8889
19.1383 88.8594
19.1514 88.9053
19.1644 88.8322
19.1775 88.7378
19.1905 88.8085
19.2036 88.8068
19.2166 88.8388
19.2296 88.5742
19.2427 88.435
19.2557 88.3352
19.2688 88.2869
19.2818 88.2251
19.2949 88.115
19.3079 88.0649
19.321 88.0629
19.334 88.0723
19.3471 88.0639
19.3601 88.0901
19.3731 87.9861
19.3862 87.8019
19.3992 87.7148
19.4123 87.6775
19.4253 87.6524
19.4384 87.6294
19.4514 87.686
19.4645 87.6815
19.4775 87.5583
19.4905 87.4445
19.5036 87.1783
19.5166 86.9601
19.5297 87.0175
19.5427 87.0838
19.5558 86.9342
19.5688 86.9018
19.5819 86.8176
19.5949 86.7295
19.608 86.8133
19.621 86.7406
19.634 86.827
19.6471 86.5799
19.6601 86.5221
19.6732 86.4954
19.6862 86.2727
19.6993 86.231
19.7123 86.2899
19.7254 86.2386
19.7384 86.235
19.7514 86.1753
19.7645 86.0031
19.7775 85.861
19.7906 85.8223
19.8036 85.8489
19.8167 86.0348
19.8297 85.9093
19.8428 85.8425
19.8558 85.6563
19.8689 85.6277
19.8819 85.6279
19.8949 85.5598
19.908 85.5305
19.921 85.4975
19.9341 85.3618
19.9471 85.1848
19.9602 85.1908
19.9732 85.1844
19.9863 85.2636
19.9993 85.2197
20.0123 85.0908
20.0254 84.8768
20.0384 84.9371
20.0515 85.0244
20.0645 84.9303
20.0776 84.7978
20.0906 84.7354
20.1037 84.5961
20.1167 84.5321
20.1298 84.5574
20.1428 84.355
20.1558 84.1863
20.1689 84.1848
20.1819 84.0976
20.195 83.9471
20.208 83.9305
20.2211 83.7785
20.2341 83.6142
20.2472 83.6476
20.2602 83.5864
20.2732 83.4773
20.2863 83.4426
20.2993 83.6603
20.3124 83.5835
20.3254 83.5013
20.3385 83.4659
20.3515 83.4116
20.3646 83.4142
20.3776 83.2673
20.3907 83.0591
20.4037 82.9667
20.4167 82.9354
20.4298 82.9628
20.4428 82.9705
20.4559 82.9569
20.4689 82.9288
20.482 82.8388
20.495 82.7327
20.5081 82.6021
20.5211 82.52
20.5341 82.5508
20.5472 82.5638
20.5602 82.5257
20.5733 82.4994
20.5863 82.388
20.5994 82.1661
20.6124 82.1519
20.6255 82.1224
20.6385 82.0006
20.6516 82.0016
20.6646 82.1076
20.6776 82.11
20.6907 81.9379
20.7037 81.6885
20.7168 81.5529
20.7298 81.3706
20.7429 81.4935
20.7559 81.551
20.769 81.4427
20.782 81.2727
20.795 81.2884
20.8081 81.3184
20.8211 81.3694
20.8342 81.2945
20.8472 81.0939
20.8603 81.0485
20.8733 80.9059
20.8864 80.9023
20.8994 80.7557
20.9125 80.6656
20.9255 80.6812
20.9385 80.633
20.9516 80.5894
20.9646 80.5124
20.9777 80.4904
20.9907 80.4742
21.0038 80.4275
21.0168 80.4462
21.0299 80.4342
21.0429 80.3175
21.0559 80.249
21.069 80.1139
21.082 79.9882
21.0951 79.8003
21.1081 79.836
21.1212 79.7067
21.1342 79.7529
21.1473 79.7587
21.1603 79.8142
21.1734 79.7443
21.1864 79.8203
21.1994 79.7618
21.2125 79.6472
21.2255 79.5407
21.2386 79.5232
21.2516 79.539
21.2647 79.4962
21.2777 79.4184
21.2908 79.3779
21.3038 79.2397
21.3168 79.1123
21.3299 79.0505
21.3429 79.037
21.356 78.9826
21.369 79.0485
21.3821 78.9731
21.3951 78.8575
21.4082 78.7717
21.4212 78.7358
21.4343 78.7034
21.4473 78.732
21.4603 78.7846
21.4734 78.7557
21.4864 78.6721
21.4995 78.6562
21.5125 78.5284
21.5256 78.4387
21.5386 78.3306
21.5517 78.2343
21.5647 78.2943
21.5777 78.2591
21.5908 78.1684
21.6038 78.0673
21.6169 77.8941
21.6299 77.9122
21.643 77.8999
21.656 77.7997
21.6691 77.7205
21.6821 77.7762
21.6952 77.8355
21.7082 77.8183
21.7212 77.8661
21.7343 77.7563
21.7473 77.5148
21.7604 77.3208
21.7734 77.2839
21.7865 77.2106
21.7995 77.1618
21.8126 77.0939
21.8256 77.0536
21.8386 76.9102
21.8517 76.7927
21.8647 76.8126
21.8778 76.7244
21.8908 76.6979
21.9039 76.728
21.9169 76.6756
21.93 76.6051
21.943 76.6538
21.9561 76.6482
21.9691 76.5977
21.9821 76.5133
21.9952 76.4215
22.0082 76.3128
22.0213 76.386
22.0343 76.3264
22.0474 76.3083
22.0604 76.315
22.0735 76.1962
22.0865 76.1056
22.0995 76.1204
22.1126 75.9921
22.1256 75.9003
22.1387 75.8755
22.1517 75.9586
22.1648 75.8223
22.1778 75.6309
22.1909 75.5567
22.2039 75.5547
22.217 75.5894
22.23 75.5248
22.243 75.4586
22.2561 75.4941
22.2691 75.4688
22.2822 75.3886
22.2952 75.3755
22.3083 75.2966
22.3213 75.1725
22.3344 75.1011
22.3474 75.0635
22.3604 75.0391
22.3735 75.025
22.3865 75.0273
22.3996 74.8886
22.4126 74.818
22.4257 74.7327
22.4387 74.8732
22.4518 74.84
22.4648 74.7095
22.4779 74.5102
22.4909 74.5988
22.5039 74.6277
22.517 74.5697
22.53 74.5764
22.5431 74.5411
22.5561 74.4295
22.5692 74.2566
22.5822 74.1534
22.5953 74.0958
22.6083 74.1682
22.6213 74.2299
22.6344 74.1604
22.6474 74.0592
22.6605 73.9739
22.6735 73.9306
22.6866 73.7687
22.6996 73.8848
22.7127 73.8076
22.7257 73.6574
22.7388 73.6324
22.7518 73.7088
22.7648 73.7191
22.7779 73.5982
22.7909 73.4883
22.804 73.4996
22.817 73.4209
22.8301 73.3351
22.8431 73.2907
22.8562 73.1874
22.8692 73.1992
22.8822 73.137
22.8953 73.1867
22.9083 73.0986
22.9214 73.1663
22.9344 73.1179
22.9475 73.0935
22.9605 72.9887
22.9736 72.9185
22.9866 72.8435
22.9997 72.7838
23.0127 72.7908
23.0257 72.7267
23.0388 72.7276
23.0518 72.6768
23.0649 72.5895
23.0779 72.59
23.091 72.4715
23.104 72.5136
23.1171 72.3826
23.1301 72.2768
23.1431 72.2071
23.1562 72.1193
23.1692 72.2072
23.1823 72.0922
23.1953 72.1434
23.2084 72.2378
23.2214 72.2252
23.2345 72.2511
23.2475 72.155
23.2606 71.9615
23.2736 71.9688
23.2866 71.8588
23.2997 71.8302
23.3127 71.8052
23.3258 71.6341
23.3388 71.64
23.3519 71.6683
23.3649 71.666
23.378 71.7404
23.391 71.6392
23.404 71.6164
23.4171 71.5185
23.4301 71.4301
23.4432 71.4668
23.4562 71.3717
23.4693 71.3432
23.4823 71.2034
23.4954 71.1441
23.5084 71.1252
23.5215 71.1301
23.5345 70.9497
23.5475 70.9322
23.5606 70.9498
23.5736 70.8478
23.5867 70.7648
23.5997 70.7269
23.6128 70.7592
23.6258 70.7767
23.6389 70.7982
23.6519 70.766
23.6649 70.6885
23.678 70.6944
23.691 70.5434
23.7041 70.4715
23.7171 70.4477
23.7302 70.4227
23.7432 70.4109
23.7563 70.4306
23.7693 70.353
23.7824 70.2795
23.7954 70.3038
23.8084 70.3135
23.8215 70.1824
23.8345 70.1449
23.8476 70.0291
23.8606 69.98
23.8737 70.0216
23.8867 69.9554
23.8998 69.9326
23.9128 69.955
23.9258 69.8339
23.9389 69.7605
23.9519 69.6893
23.965 69.6809
23.978 69.5981
23.9911 69.5589
24.0041 69.6262
24.0172 69.5111
24.0302 69.429
24.0433 69.4828
24.0563 69.4879
24.0693 69.3536
24.0824 69.2231
24.0954 69.2967
24.1085 69.1647
24.1215 69.105
24.1346 69.0399
24.1476 68.9966
24.1607 69.0189
24.1737 69.0101
24.1867 69.004
24.1998 68.9924
24.2128 68.9264
24.2259 68.8526
24.2389 68.7337
24.252 68.7607
24.265 68.71
24.2781 68.5745
24.2911 68.4974
24.3042 68.4358
24.3172 68.4212
24.3302 68.397
24.3433 68.3901
24.3563 68.3125
24.3694 68.2369
24.3824 68.164
24.3955 68.2115
24.4085 68.3066
24.4216 68.2299
24.4346 68.1513
24.4476 68.1395
24.4607 67.9752
24.4737 67.8394
24.4868 67.903
24.4998 67.8519
24.5129 67.8673
24.5259 67.7601
24.539 67.695
24.552 67.7248
24.5651 67.7906
24.5781 67.7884
24.5911 67.6324
24.6042 67.5791
24.6172 67.5093
24.6303 67.4766
24.6433 67.4398
24.6564 67.4197
24.6694 67.3675
24.6825 67.3846
24.6955 67.3954
24.7085 67.3205
24.7216 67.1886
24.7346 67.1059
24.7477 67.1202
24.7607 67.1794
24.7738 67.2093
24.7868 67.1583
24.7999 67.1007
24.8129 67.0457
24.826 67.0489
24.839 66.9974
24.852 67.029
24.8651 66.957
24.8781 66.8817
24.8912 66.748
24.9042 66.7261
24.9173 66.7819
24.9303 66.8189
24.9434 66.7212
24.9564 66.6896
24.9694 66.5097
24.9825 66.5555
24.9955 66.5887
25.0086 66.5438
25.0216 66.5047
25.0347 66.4354
25.0477 66.4369
25.0608 66.4906
25.0738 66.5414
25.0869 66.4721
25.0999 66.3315
25.1129 66.3507
25.126 66.3194
25.139 66.1251
25.1521 66.0615
25.1651 65.9753
25.1782 65.9768
25.1912 65.9559
25.2043 66.0084
25.2173 65.9353
25.2303 65.925
25.2434 65.8172
25.2564 65.763
25.2695 65.7775
25.2825 65.7236
25.2956 65.7132
25.3086 65.6388
25.3217 65.595
25.3347 65.62
25.3478 65.595
25.3608 65.6105
25.3738 65.4714
25.3869 65.3758
25.3999 65.365
25.413 65.3793
25.426 65.3998
25.4391 65.275
25.4521 65.2158
25.4652 65.2284
25.4782 65.3037
25.4912 65.3687
25.5043 65.1932
25.5173 65.2258
25.5304 65.1801
25.5434 65.1056
25.5565 65.1902
25.5695 65.2177
25.5826 65.1629
25.5956 65.0744
25.6087 64.9917
25.6217 64.9991
25.6347 65.0939
25.6478 64.9992
25.6608 64.8901
25.6739 64.9217
25.6869 64.808
25.7 64.7724
25.713 64.8105
25.7261 64.8294
25.7391 64.8179
25.7521 64.7544
25.7652 64.6237
25.7782 64.6429
25.7913 64.7176
25.8043 64.7011
25.8174 64.6231
25.8304 64.6004
25.8435 64.6818
25.8565 64.6843
25.8696 64.5968
25.8826 64.6643
25.8956 64.6211
25.9087 64.7068
25.9217 64.7401
25.9348 64.6531
25.9478 64.5541
25.9609 64.5593
25.9739 64.6429
25.987 64.7085
26 64.7102
26.013 64.6907
26.0261 64.5935
26.0391 64.5089
26.0522 64.5034
26.0652 64.589
26.0783 64.5868
26.0913 64.4762
26.1044 64.5632
26.1174 64.5644
26.1305 64.5445
26.1435 64.5906
26.1565 64.4523
26.1696 64.4801
26.1826 64.4585
26.1957 64.4091
26.2087 64.4221
26.2218 64.4584
26.2348 64.4531
26.2479 64.4557
26.2609 64.3982
26.2739 64.3978
26.287 64.3358
26.3 64.2975
26.3131 64.1964
26.3261 64.1863
26.3392 64.2224
26.3522 64.1735
26.3653 64.0958
26.3783 64.0849
26.3914 64.0818
26.4044 64.1706
26.4174 64.1862
26.4305 64.1126
26.4435 63.9725
26.4566 64.1301
26.4696 64.11
26.4827 64.0255
26.4957 64.0504
26.5088 64.112
26.5218 64.0778
26.5348 64.0267
26.5479 63.8845
26.5609 63.9813
26.574 64.0069
26.587 63.9672
26.6001 63.9264
26.6131 63.9761
26.6262 64.044
26.6392 63.9326
26.6523 63.8384
26.6653 63.8857
26.6783 63.7902
26.6914 63.7662
26.7044 63.6684
26.7175 63.7523
26.7305 63.8813
26.7436 63.9309
26.7566 63.8966
26.7697 63.9184
26.7827 63.811
26.7957 63.7943
26.8088 63.7869
26.8218 63.8133
26.8349 63.8083
26.8479 63.7162
26.861 63.6619
26.874 63.6289
26.8871 63.5787
26.9001 63.5871
26.9132 63.6049
26.9262 63.6149
26.9392 63.5609
26.9523 63.5589
26.9653 63.6046
26.9784 63.6649
26.9914 63.6621
27.0045 63.6059
27.0175 63.5849
27.0306 63.4913
27.0436 63.343
27.0566 63.5121
27.0697 63.5199
27.0827 63.4795
27.0958 63.4107
27.1088 63.4415
27.1219 63.3255
27.1349 63.1969
27.148 63.2074
27.161 63.2524
27.1741 63.2385
27.1871 63.2877
27.2001 63.2993
27.2132 63.2478
27.2262 63.2461
27.2393 63.2675
27.2523 63.202
27.2654 63.081
27.2784 63.1619
27.2915 63.104
27.3045 63.1693
27.3176 63.1311
27.3306 63.1263
27.3436 63.1923
27.3567 63.1707
27.3697 63.0775
27.3828 63.0043
27.3958 63.0489
27.4089 63.0381
27.4219 63.0486
27.435 63.027
27.448 62.9881
27.461 62.9976
27.4741 63.0268
27.4871 63.0278
27.5002 62.9
27.5132 62.8009
27.5263 62.7543
27.5393 62.6523
27.5524 62.6898
27.5654 62.5824
27.5785 62.6841
27.5915 62.6589
27.6045 62.7045
27.6176 62.7302
27.6306 62.728
27.6437 62.8425
27.6567 62.9067
27.6698 62.8432
27.6828 62.735
27.6959 62.782
27.7089 62.7234
27.7219 62.6504
27.735 62.6963
27.748 62.6325
27.7611 62.6629
27.7741 62.613
27.7872 62.6654
27.8002 62.5556
27.8133 62.485
27.8263 62.6044
27.8394 62.5455
27.8524 62.5497
27.8654 62.5212
27.8785 62.5231
27.8915 62.4592
27.9046 62.4701
27.9176 62.3983
27.9307 62.4005
27.9437 62.4358
27.9568 62.51
27.9698 62.493
27.9828 62.3455
27.9959 62.3454
28.0089 62.3918
28.022 62.3822
28.035 62.2989
28.0481 62.3151
28.0611 62.3851
28.0742 62.3079
28.0872 62.2792
28.1003 62.3565
28.1133 62.2958
28.1263 62.2518
28.1394 62.1468
28.1524 62.1181
28.1655 62.0938
28.1785 62.1595
28.1916 62.1839
28.2046 62.2358
28.2177 62.1931
28.2307 62.2191
28.2437 62.2191
28.2568 62.1205
28.2698 62.0403
28.2829 62.0676
28.2959 62.0172
28.309 62.0401
28.322 62.0445
28.3351 61.9984
28.3481 62.0017
28.3612 61.99
28.3742 62.1095
28.3872 62.0581
28.4003 62.0471
28.4133 62.0165
28.4264 62.0303
28.4394 62.1056
28.4525 62.0055
28.4655 62.0975
28.4786 62.0472
28.4916 61.9702
28.5046 61.9731
28.5177 61.9586
28.5307 61.986
28.5438 61.8733
28.5568 61.8361
28.5699 61.8576
28.5829 61.8121
28.596 61.9007
28.609 61.9365
28.6221 61.9534
28.6351 62.0075
28.6481 62.0012
28.6612 62.0637
28.6742 61.9761
28.6873 61.9561
28.7003 61.9769
28.7134 61.8849
28.7264 61.7864
28.7395 61.8224
28.7525 61.839
28.7655 61.9023
28.7786 61.9431
28.7916 61.9392
28.8047 61.8771
28.8177 61.8986
28.8308 61.8513
28.8438 61.8571
28.8569 61.9307
28.8699 61.8568
28.883 61.8651
28.896 61.9554
28.909 62.0879
28.9221 62.0329
28.9351 61.9672
28.9482 61.9404
28.9612 61.9435
28.9743 61.9724
28.9873 61.9974
29.0004 61.9734
29.0134 61.9441
29.0264 61.9144
29.0395 62.0502
29.0525 62.0841
29.0656 62.0389
29.0786 61.8869
29.0917 61.7812
29.1047 61.8313
29.1178 62.0316
29.1308 62.1314
29.1439 62.0764
29.1569 62.1866
29.1699 62.1312
29.183 62.025
29.196 62.0253
29.2091 61.9538
29.2221 61.9956
29.2352 61.9724
29.2482 61.9908
29.2613 61.9351
29.2743 61.9282
29.2873 61.7887
29.3004 61.7819
29.3134 61.9414
29.3265 61.9701
29.3395 61.9419
29.3526 61.8515
29.3656 61.7864
29.3787 61.784
29.3917 61.7932
29.4048 61.8095
29.4178 61.7569
29.4308 61.7096
29.4439 61.6517
29.4569 61.7062
29.47 61.6667
29.483 61.6622
29.4961 61.7316
29.5091 61.7112
29.5222 61.5786
29.5352 61.567
29.5482 61.5871
29.5613 61.5577
29.5743 61.6097
29.5874 61.6106
29.6004 61.606
29.6135 61.6368
29.6265 61.7788
29.6396 61.7037
29.6526 61.7043
29.6657 61.625
29.6787 61.5332
29.6917 61.4625
29.7048 61.4738
29.7178 61.3984
29.7309 61.2745
29.7439 61.2693
29.757 61.2695
29.77 61.3148
29.7831 61.369
29.7961 61.3771
29.8091 61.2706
29.8222 61.3056
29.8352 61.3221
29.8483 61.3754
29.8613 61.2705
29.8744 61.1956
29.8874 61.2283
29.9005 61.1577
29.9135 61.1441
29.9266 61.23
29.9396 61.2669
29.9526 61.1603
29.9657 61.0735
29.9787 61.0632
29.9918 61.0878
30.0048 61.09
30.0179 61.0826
30.0309 61.0091
30.044 61.0124
30.057 60.9951
30.07 60.9052
30.0831 60.8995
30.0961 60.8457
30.1092 60.8051
30.1222 60.8973
30.1353 60.8507
30.1483 60.7637
30.1614 60.7274
30.1744 60.7946
30.1875 60.7697
30.2005 60.622
30.2135 60.5472
30.2266 60.5192
30.2396 60.5134
30.2527 60.4888
30.2657 60.4537
30.2788 60.4077
30.2918 60.3714
30.3049 60.4129
30.3179 60.4604
30.3309 60.3904
30.344 60.283
30.357 60.3207
30.3701 60.1838
30.3831 60.1617
30.3962 60.207
30.4092 60.1591
30.4223 60.1684
30.4353 60.1574
30.4484 60.1447
30.4614 60.1396
30.4744 60.1072
30.4875 60.0055
30.5005 59.9928
30.5136 59.9488
30.5266 59.7971
30.5397 59.7655
30.5527 59.7464
30.5658 59.6769
30.5788 59.6364
30.5918 59.6368
30.6049 59.6336
30.6179 59.5849
30.631 59.5455
30.644 59.5295
30.6571 59.4986
30.6701 59.3622
30.6832 59.3025
30.6962 59.2914
30.7093 59.3229
30.7223 59.2714
30.7353 59.2438
30.7484 59.3009
30.7614 59.1839
30.7745 59.0823
30.7875 59.0852
30.8006 59.1129
30.8136 59.0958
30.8267 59.0177
30.8397 58.9579
30.8527 58.9757
30.8658 58.9652
30.8788 58.8929
30.8919 58.8662
30.9049 58.9453
30.918 58.8531
30.931 58.7884
30.9441 58.6532
30.9571 58.7298
30.9702 58.563
30.9832 58.5338
30.9962 58.5255
31.0093 58.4297
31.0223 58.4284
31.0354 58.3549
31.0484 58.4277
31.0615 58.3519
31.0745 58.3109
31.0876 58.4401
31.1006 58.3756
31.1136 58.3801
31.1267 58.2817
31.1397 58.1718
31.1528 58.1712
31.1658 58.299
31.1789 58.2797
31.1919 58.0987
31.205 58.1054
31.218 58.0954
31.2311 58.0903
31.2441 58.0894
31.2571 58.154
31.2702 58.1218
31.2832 58.0487
31.2963 57.9935
31.3093 57.9109
31.3224 57.8876
31.3354 57.8553
31.3485 57.7487
31.3615 57.7462
31.3745 57.6756
31.3876 57.5889
31.4006 57.6483
31.4137 57.6224
31.4267 57.5429
31.4398 57.6019
31.4528 57.5551
31.4659 57.4545
31.4789 57.3808
31.492 57.3683
31.505 57.3224
31.518 57.4353
31.5311 57.4593
31.5441 57.4176
31.5572 57.2818
31.5702 57.2759
31.5833 57.3077
31.5963 57.2431
31.6094 57.2388
31.6224 57.2723
31.6354 57.1905
31.6485 57.1718
31.6615 57.193
31.6746 57.1658
31.6876 57.0116
31.7007 57.0614
31.7137 57.1044
31.7268 57.213
31.7398 57.1511
31.7529 57.087
31.7659 57.0312
31.7789 56.9823
31.792 56.9484
31.805 56.9034
31.8181 56.9239
31.8311 56.8641
31.8442 56.934
31.8572 56.9083
31.8703 56.9342
31.8833 56.9176
31.8963 56.9806
31.9094 56.948
31.9224 56.9235
31.9355 56.8205
31.9485 56.9219
31.9616 56.9856
31.9746 56.9706
31.9877 56.9081
32.0007 56.9125
32.0138 56.9236
32.0268 56.9385
32.0398 56.9546
32.0529 56.9076
32.0659 56.9005
32.079 56.9096
32.092 56.8414
32.1051 56.7859
32.1181 56.815
32.1312 56.7763
32.1442 56.8407
32.1572 56.8096
32.1703 56.7915
32.1833 56.7303
32.1964 56.8198
32.2094 56.7478
32.2225 56.7982
32.2355 56.7332
32.2486 56.6994
32.2616 56.7153
32.2747 56.6897
32.2877 56.6321
32.3007 56.5653
32.3138 56.6143
32.3268 56.6866
32.3399 56.7248
32.3529 56.6422
32.366 56.606
32.379 56.5436
32.3921 56.574
32.4051 56.5252
32.4181 56.5466
32.4312 56.5475
32.4442 56.536
32.4573 56.5013
32.4703 56.4528
32.4834 56.323
32.4964 56.3216
32.5095 56.3613
32.5225 56.3945
32.5356 56.4422
32.5486 56.3552
32.5616 56.3063
32.5747 56.2854
32.5877 56.8198
32.6008 57.1482
32.6138 57.3762
32.6269 57.4901
32.6399 57.4385
32.653 57.4974
32.666 57.4645
32.679 57.5517
32.6921 57.6352
32.7051 57.6774
32.7182 57.6864
32.7312 57.7301
32.7443 57.8369
32.7573 57.8981
32.7704 57.8695
32.7834 57.9536
32.7965 57.9268
32.8095 57.9009
32.8225 57.9174
32.8356 57.8168
32.8486 57.8954
32.8617 57.9503
32.8747 58.0668
32.8878 58.0277
32.9008 58.0744
32.9139 58.0913
32.9269 58.1216
32.9399 58.2255
32.953 58.2835
32.966 58.2019
32.9791 58.1343
32.9921 58.1999
33.0052 58.1453
33.0182 58.1563
33.0313 58.2061
33.0443 58.2179
33.0574 58.4165
33.0704 58.4006
33.0834 58.2578
33.0965 58.2828
33.1095 58.4314
33.1226 58.3539
33.1356 58.4275
33.1487 58.5621
33.1617 58.6134
33.1748 58.625
33.1878 58.6458
33.2008 58.5996
33.2139 58.5968
33.2269 58.503
33.24 58.5092
33.253 58.6747
33.2661 58.5749
33.2791 58.6213
33.2922 58.74
33.3052 58.585
33.3183 58.6094
33.3313 58.6427
33.3443 58.6079
33.3574 58.5632
33.3704 58.6483
33.3835 58.6545
33.3965 58.7007
33.4096 58.825
33.4226 58.7309
33.4357 58.6925
33.4487 58.8154
33.4617 58.9745
33.4748 58.9849
33.4878 58.9664
33.5009 58.9932
33.5139 58.9423
33.527 59.0052
33.54 58.9982
33.5531 59.1022
33.5661 59.0788
33.5792 59.0806
33.5922 59.0266
33.6052 59.1194
33.6183 59.1517
33.6313 59.1773
33.6444 59.2332
33.6574 59.2435
33.6705 59.1543
33.6835 59.2624
33.6966 59.263
33.7096 59.2776
33.7226 59.2963
33.7357 59.3378
33.7487 59.4236
33.7618 59.4126
33.7748 59.4201
33.7879 59.4148
33.8009 59.4085
33.814 59.4773
33.827 59.518
33.8401 59.4736
33.8531 59.4074
33.8661 59.4888
33.8792 59.6637
33.8922 59.6258
33.9053 59.7238
33.9183 59.6389
33.9314 59.5017
33.9444 59.4233
33.9575 59.5756
33.9705 59.611
33.9835 59.4646
33.9966 59.6745
34.0096 59.7075
34.0227 59.7699
34.0357 59.564
34.0488 59.6628
34.0618 59.6878
34.0749 59.6588
34.0879 59.8518
34.101 59.9486
34.114 59.9208
34.127 59.8568
34.1401 59.7506
34.1531 59.7016
34.1662 59.7609
34.1792 59.8455
34.1923 59.9629
34.2053 59.9139
34.2184 60.023
34.2314 60.017
34.2444 59.9416
34.2575 60.094
34.2705 60.0535
34.2836 60.1132
34.2966 60.1209
34.3097 60.1715
34.3227 60.2044
34.3358 60.3476
34.3488 60.2879
34.3619 60.064
34.3749 60.0726
34.3879 60.0868
34.401 60.0928
34.414 60.1333
34.4271 60.2076
34.4401 60.3585
34.4532 60.4657
34.4662 60.4556
34.4793 60.337
34.4923 60.2661
34.5053 60.3946
34.5184 60.4456
34.5314 60.4273
34.5445 60.5219
34.5575 60.4372
34.5706 60.4101
34.5836 60.4586
34.5967 60.5765
34.6097 60.5281
34.6228 60.5327
34.6358 60.7198
34.6488 60.5999
34.6619 60.6109
34.6749 60.6579
34.688 60.5486
34.701 60.5371
34.7141 60.7286
34.7271 60.9181
34.7402 60.7865
34.7532 60.5572
34.7662 60.7364
34.7793 60.7171
34.7923 60.6195
34.8054 60.6932
34.8184 60.6876
34.8315 60.7947
34.8445 60.7474
34.8576 60.8221
34.8706 60.7603
34.8837 60.7058
34.8967 60.7803
34.9097 60.83
34.9228 60.5944
34.9358 60.5202
34.9489 60.7
34.9619 60.7394
34.975 60.7969
34.988 60.8363
35.0011 60.9648
35.0141 60.9876
35.0271 60.8991
35.0402 60.7341
35.0532 60.8919
35.0663 60.8141
35.0793 60.7374
35.0924 60.6577
35.1054 60.7657
35.1185 61.1629
35.1315 61.0484
35.1446 60.9495
35.1576 60.8315
35.1706 60.86
35.1837 60.7437
35.1967 60.9327
35.2098 60.971
35.2228 61.0792
35.2359 61.0876
35.2489 61.0231
35.262 60.8516
35.275 60.9155
35.288 60.8785
35.3011 60.8522
35.3141 60.9567
35.3272 60.9096
35.3402 60.8311
35.3533 60.6159
35.3663 60.644
35.3794 60.961
35.3924 61.0111
35.4055 60.8022
35.4185 60.935
35.4315 61.0958
35.4446 61.1078
35.4576 61.0126
35.4707 61.1594
35.4837 61.1928
35.4968 61.2415
35.5098 61.1041
35.5229 60.9237
35.5359 60.9267
35.5489 61.0886
35.562 61.0033
35.575 60.956
35.5881 61.0561
35.6011 61.065
35.6142 61.0476
35.6272 61.0089
35.6403 61.0028
35.6533 61.0954
35.6664 61.131
35.6794 61.0887
35.6924 61.1141
35.7055 61.1582
35.7185 61.2325
35.7316 61.2576
35.7446 61.3529
35.7577 61.2911
35.7707 61.2751
35.7838 61.2162
35.7968 61.2456
35.8098 61.2993
35.8229 61.3342
35.8359 61.3556
35.849 61.4955
35.862 61.278
35.8751 61.3931
35.8881 61.3369
35.9012 61.4882
35.9142 61.7538
35.9273 61.6907
35.9403 61.6175
35.9533 61.5157
35.9664 61.4073
35.9794 61.3598
35.9925 61.5399
36.0055 61.5186
36.0186 61.4737
36.0316 61.6309
36.0447 61.6993
36.0577 61.491
36.0707 61.2092
36.0838 61.1423
36.0968 61.2672
36.1099 61.5025
36.1229 61.4251
36.136 61.4247
36.149 61.4017
36.1621 61.319
36.1751 61.1593
36.1882 61.1834
36.2012 61.1478
36.2142 61.0635
36.2273 61.2227
36.2403 61.2833
36.2534 61.2434
36.2664 61.0791
36.2795 60.9133
36.2925 60.9698
36.3056 60.8188
36.3186 60.7668
36.3316 60.9043
36.3447 60.7704
36.3577 60.6662
36.3708 60.6229
36.3838 60.5271
36.3969 60.4458
36.4099 60.3514
36.423 60.3673
36.436 60.1574
36.4491 60.1308
36.4621 60.0571
36.4751 60.0463
36.4882 59.93
36.5012 59.7817
36.5143 59.765
36.5273 59.7234
36.5404 59.7974
36.5534 59.7387
36.5665 59.5369
36.5795 59.4442
36.5925 59.5291
36.6056 59.4224
36.6186 59.2886
36.6317 58.9939
36.6447 58.8806
36.6578 58.991
36.6708 59.028
36.6839 58.8279
36.6969 58.9317
36.71 59.0236
36.723 58.7237
36.736 58.7207
36.7491 58.7882
36.7621 58.5524
36.7752 58.3933
36.7882 58.118
36.8013 58.2372
36.8143 58.1957
36.8274 58.1658
36.8404 57.9779
36.8535 58.0536
36.8665 58.2256
36.8795 57.901
36.8926 57.9129
36.9056 57.9684
36.9187 57.749
36.9317 57.5794
36.9448 57.415
36.9578 57.3752
36.9709 57.422
36.9839 57.4574
36.9969 57.5068
37.01 57.216
37.023 57.1742
37.0361 57.0206
37.0491 56.9856
37.0622 57.0321
37.0752 56.7356
37.0883 56.8595
37.1013 56.7062
37.1144 56.8025
37.1274 56.9411
37.1404 56.7191
37.1535 56.9671
37.1665 56.7094
37.1796 56.6093
37.1926 56.3426
37.2057 56.3323
37.2187 56.3632
37.2318 56.2641
37.2448 56.2452
37.2578 56.1844
37.2709 56.1233
37.2839 56.2256
37.297 55.9913
37.31 55.6593
37.3231 55.6988
37.3361 55.7222
37.3492 55.8037
37.3622 55.5674
37.3753 55.6117
37.3883 55.7423
37.4013 55.3681
37.4144 55.2224
37.4274 55.3593
37.4405 55.4179
37.4535 55.3334
37.4666 55.2261
37.4796 55.0894
37.4927 54.9506
37.5057 54.8235
37.5187 54.8468
37.5318 54.9811
37.5448 54.9647
37.5579 54.6418
37.5709 54.8967
37.584 54.6894
37.597 54.6929
37.6101 54.7821
37.6231 54.75
37.6362 54.8029
37.6492 54.7172
37.6622 54.5901
37.6753 54.4305
37.6883 54.1146
37.7014 54.3854
37.7144 54.2585
37.7275 54.1906
37.7405 54.0975
37.7536 53.9954
37.7666 53.9866
37.7796 54.1171
37.7927 53.9316
37.8057 53.5915
37.8188 53.3334
37.8318 53.6153
37.8449 53.4621
37.8579 53.4474
37.871 53.4558
37.884 53.3382
37.8971 53.4618
37.9101 53.3682
37.9231 53.3907
37.9362 53.3787
37.9492 53.1975
37.9623 53.2588
37.9753 53.0076
37.9884 52.8045
38.0014 52.942
38.0145 52.8896
38.0275 53.0332
38.0405 52.8513
38.0536 52.9524
38.0666 52.3217
38.0797 52.3711
38.0927 52.4706
38.1058 52.3966
38.1188 52.4559
38.1319 52.3737
38.1449 52.2339
38.158 52.2044
38.171 52.2725
38.184 51.9015
38.1971 51.8703
38.2101 51.792
38.2232 51.9486
38.2362 51.796
38.2493 51.8209
38.2623 51.7413
38.2754 51.6294
38.2884 51.6428
38.3014 51.528
38.3145 51.7742
38.3275 51.6181
38.3406 51.2808
38.3536 51.6134
38.3667 51.5163
38.3797 51.3105
38.3928 51.4148
38.4058 51.4286
38.4189 51.3984
38.4319 51.3381
38.4449 51.1364
38.458 51.1612
38.471 51.1226
38.4841 50.9155
38.4971 50.7801
38.5102 50.9825
38.5232 50.6797
38.5363 50.8953
38.5493 50.8989
38.5623 50.7218
38.5754 50.8072
38.5884 50.5151
38.6015 50.4483
38.6145 50.3751
38.6276 50.1111
38.6406 49.9267
38.6537 49.7901
38.6667 49.8363
38.6798 49.7958
38.6928 49.5082
38.7058 49.5845
38.7189 49.5747
38.7319 49.3503
38.745 49.0476
38.758 49.2551
38.7711 49.2459
38.7841 49.0249
38.7972 48.7863
38.8102 49.0251
38.8232 49.1678
38.8363 48.9872
38.8493 48.9727
38.8624 48.7453
38.8754 48.8972
38.8885 49.1171
38.9015 49.4157
38.9146 49.224
38.9276 49.1714
38.9407 49.1682
38.9537 49.2127
38.9667 49.6575
38.9798 49.5189
38.9928 48.9137
39.0059 49.1568
39.0189 49.1307
39.032 49.0533
39.045 49.1436
39.0581 48.9941
39.0711 48.7665
39.0841 48.5369
39.0972 48.714
39.1102 49.1047
39.1233 49.0292
39.1363 49.1464
39.1494 48.5878
39.1624 49.3822
39.1755 49.3415
39.1885 48.7749
39.2016 49.2947
39.2146 49.1627
39.2276 49.3702
39.2407 49.217
39.2537 49.1954
39.2668 48.7303
39.2798 49.0827
39.2929 48.9557
39.3059 49
39.319 48.8291
39.332 48.8426
39.345 49.789
39.3581 49.2726
39.3711 50.3231
39.3842 49.6838
39.3972 49.5101
39.4103 49.0017
39.4233 49.2035
39.4364 49.7939
39.4494 49.2561
39.4625 49.198
39.4755 48.7562
39.4885 49.8619
39.5016 49.5591
39.5146 49.5094
39.5277 49.7668
39.5407 49.8598
39.5538 49.4885
39.5668 49.1966
39.5799 49.3623
39.5929 50.0072
39.6059 50.1203
39.619 50.6142
39.632 50.5325
39.6451 50.8873
39.6581 49.1935
39.6712 49.3662
39.6842 49.8004
39.6973 47.8329
39.7103 47.0106
